energy [MeV],Flux
10.0,25.83198501765827
16.665555185061688,28.572221151160612
23.331110370123376,29.65568900782076
29.99666555518506,29.884134732122753
36.66222074024675,29.68859321136359
43.32777592530844,29.2329036905377
49.99333111037012,28.637252321116623
56.65888629543181,27.992603116105844
63.3244414804935,27.20561336684703
69.98999666555518,26.469130252996415
76.65555185061687,25.694962770756575
83.32110703567857,24.959179623357247
89.98666222074024,24.20055598184153
96.65221740580193,23.524803590077468
103.31777259086363,22.7876447563322
109.9833277759253,22.120604326549618
116.648882960987,21.48978302955354
123.31443814604869,20.841136483251024
129.97999333111036,20.243232520412366
136.64554851617206,19.68971272747076
143.31110370123375,19.1149837814702
149.97665888629544,18.576768104924998
156.64221407135713,18.07237086036603
163.3077692564188,17.593292517282023
169.9733244414805,17.11087969437563
176.63887962654218,16.654609165545853
183.30443481160387,16.22203146917437
189.96998999666556,15.811003275423799
196.63554518172725,15.409135716757655
203.30110036678892,15.019671369954377
209.9666555518506,14.647302769754882
216.6322107369123,14.290670168710633
223.297765921974,13.948558474131373
229.96332110703568,13.618678287705821
236.62887629209737,13.299292138472238
243.29443147715907,12.991565323173187
249.95998666222073,12.694691172938613
256.6255418472824,12.407937763869356
263.2910970323441,12.130639289981394
269.9566522174058,11.863510030224075
276.6222074024675,11.608558774621763
283.2877625875292,11.361267835142211
289.9533177725909,11.121178120093901
296.61887295765257,10.887867399224389
303.28442814271426,10.660946608745189
309.94998332777595,10.440056597931637
316.6155385128376,10.226400767620227
323.2810936978993,10.026525704317589
329.946648882961,9.831564609202243
336.61220406802266,9.641262292146292
343.27775925308435,9.45538130715912
349.94331443814605,9.273700409669125
356.60886962320774,9.096013174076804
363.27442480826943,8.922126752299718
369.9399799933311,8.751860756654668
376.6055351783928,8.59659245134075
383.2710903634545,8.444916043792142
389.9366455485162,8.296205059779792
396.60220073357783,8.150327754428124
403.2677559186395,8.007160206341847
409.9333111037012,7.866585736162799
416.5988662887629,7.728494376861007
423.2644214738246,7.592782390418258
429.9299766588863,7.4593518261878735
436.595531843948,7.334810939108241
443.2610870290097,7.217932349505779
449.92664221407136,7.102922277800358
456.59219739913306,6.989708034918928
463.25775258419475,6.87822070292591
469.92330776925644,6.768394890127021
476.58886295431813,6.6601685052345845
483.25441813937977,6.553482548869951
489.91997332444146,6.44828092085581
496.58552850950315,6.344510241908215
503.25108369456484,6.242119688477111
509.91663887962653,6.149889652780217
516.5821940646882,6.061644168334758
523.24774924975,5.974528811733726
529.9133044348116,5.888505326971139
536.5788596198732,5.8035371796669
543.244414804935,5.71958946013175
549.9099699899966,5.63662879297874
556.5755251750584,5.554623252766797
563.24108036012,5.473542285207777
569.9066355451818,5.393356633509978
576.5721907302434,5.314038269468312
583.2377459153051,5.235560328945018
589.9033011003668,5.16274538358534
596.5688562854285,5.096170757969574
603.2344114704902,5.030283113672478
609.8999666555519,4.965062030248977
616.5655218406135,4.900487891337474
623.2310770256752,4.836541845086725
629.8966322107369,4.773205766919452
636.5621873957986,4.710462224471932
643.2277425808603,4.648294444561461
649.893297765922,4.586686282045089
656.5588529509837,4.525622190443424
663.2244081360453,4.465087194213029
669.8899633211071,4.405066862559546
676.5555185061687,4.34554728469189
683.2210736912305,4.291064135200163
689.8866288762921,4.241326821128234
696.5521840613537,4.191998050367041
703.2177392464155,4.143067162974882
709.8832944314771,4.094523865954674
716.5488496165389,4.046358217491172
723.2144048016005,3.998560612000472
729.8799599866622,3.9511217659429643
736.5455151717239,3.9040327043543708
743.2110703567856,3.8572847480524333
749.8766255418473,3.810869501479825
756.542180726909,3.764778841146342
763.2077359119706,3.7190049046360065
769.8732910970324,3.6735400801468407
776.538846282094,3.628376996533299
783.2044014671557,3.5835085138231166
789.8699566522174,3.544313899251624
796.535511837279,3.5073485352666367
803.2010670223408,3.4706230096646586
809.8666222074024,3.4341318162339562
816.5321773924642,3.397869614790731
823.1977325775258,3.3618312249444355
829.8632877625876,3.326011620143751
836.5288429476492,3.290405921988548
843.194398132711,3.2550093947939316
849.8599533177726,3.219817440393401
856.5255085028343,3.1848255931688056
863.191063687896,3.150029515295628
869.8566188729576,3.1154249921926533
876.5221740580193,3.081007928165833
883.187729243081,3.0467743422366667
889.8532844281427,3.0127203641459763
896.5188396132044,2.9788422305245157
903.1843947982661,2.9451362812222484
909.8499499833277,2.9172767757395035
916.5155051683895,2.88987267494953
923.1810603534511,2.8626084303443338
929.8466155385129,2.8354812056481977
936.5121707235745,2.8084882397846096
943.1777259086363,2.7816268443991365
949.8432810936979,2.7548944014800343
956.5088362787595,2.7282883610720896
963.1743914638213,2.701806239079441
969.8399466488829,2.6754456151533574
976.5055018339447,2.649204130661106
983.1710570190063,2.6230794867323386
989.836612204068,2.597069442379494
996.5021673891297,2.571171812688986
1003.1677225741914,2.5453844670800527
1009.8332777592531,2.519705327628324
1016.4988329443148,2.4941323674513045
1023.1643881293764,2.4686636091531065
1029.8299433144382,2.443297123325889
1036.4954984995,2.4180310271056245
1043.1610536845615,2.3975447441273183
1049.8266088696232,2.37725050545664
1056.492164054685,2.357037616926753
1063.1577192397465,2.336904614231467
1069.8232744248082,2.3168500673668437
1076.48882960987,2.29687257963546
1083.1543847949317,2.276970786685247
1089.8199399799933,2.257143355581502
1096.485495165055,2.237388983910742
1103.1510503501167,2.217706398915132
1109.8166055351785,2.198094356656268
1116.48216072024,2.178551641207147
1123.1477159053018,2.1590770638712344
1129.8132710903635,2.139669462427557
1136.478826275425,2.1203277004008227
1143.1443814604868,2.1010506663555786
1149.8099366455485,2.0818372732135204
1156.4754918306103,2.062686457593034
1163.1410470156718,2.0435971791701517
1169.8066022007336,2.0245684200600906
1176.4721573857953,2.005599184218638
1183.137712570857,1.9866884968625929
1189.8032677559186,1.9701787243210234
1196.4688229409803,1.9551554585624675
1203.134378126042,1.9401795283348289
1209.7999333111038,1.9252501735199272
1216.4654884961653,1.9103666498152074
1223.131043681227,1.8955282283270698
1229.7965988662888,1.8807341951767036
1236.4621540513504,1.8659838511179485
1243.127709236412,1.8512765111667784
1249.7932644214739,1.8366115042419904
1256.4588196065356,1.821988172816693
1263.1243747915971,1.8074058725802329
1269.7899299766589,1.7928639721101864
1276.4554851617206,1.7783618525540676
1283.1210403467824,1.7638989073204239
1289.786595531844,1.7494745417789863
1296.4521507169056,1.735088172969572
1303.1177059019674,1.7207392293194541
1309.783261087029,1.7064271503688833
1316.4488162720907,1.692151386504509
1323.1143714571524,1.6779113987004382
1329.7799266422141,1.6637066582666644
1336.4454818272757,1.6495366466046215
1343.1110370123374,1.6354008549696448
1349.7765921973992,1.6212987842400992
1356.442147382461,1.6091785236239968
1363.1077025675224,1.5980862040000674
1369.7732577525842,1.5870210930836364
1376.438812937646,1.5759828007604073
1383.1043681227075,1.5649709441326287
1389.7699233077692,1.5539851473546042
1396.435478492831,1.5430250414726538
1403.1010336778927,1.532090264269419
1409.7665888629542,1.5211804601123473
1416.432144048016,1.5102952798062534
1423.0976992330777,1.4994343804498027
1429.7632544181395,1.4885974252958198
1436.428809603201,1.4777840836152805
1443.0943647882627,1.4669940305648934
1449.7599199733245,1.456226947058153
1456.4254751583862,1.4454825196397563
1463.0910303434478,1.4347604403632856
1469.7565855285095,1.4240604066720526
1476.4221407135713,1.4133821212830202
1483.0876958986328,1.402725292073698
1489.7532510836945,1.3920896319719223
1496.4188062687563,1.3814748588484496
1503.084361453818,1.3708806954122679
1509.7499166388795,1.3603068691085412
1516.4154718239413,1.349753112019126
1523.081027009003,1.3392191607655717
1529.7465821940648,1.328704756414542
1536.4121373791263,1.3182096443855753
1543.077692564188,1.3097099981402047
1549.7432477492498,1.3015277860469667
1556.4088029343113,1.2933611133040623
1563.074358119373,1.2852097805405023
1569.7399133044348,1.2770735916722604
1576.4054684894966,1.2689523538356846
1583.071023674558,1.26084587732252
1589.7365788596198,1.2527539755164814
1596.4021340446816,1.2446764648313506
1603.0676892297433,1.2366131646505516
1609.7332444148049,1.2285638972681434
1616.3987995998666,1.2205284878312281
1623.0643547849284,1.2125067642837
1629.72990996999,1.2044985573113216
1636.3954651550516,1.1965037002880738
1643.0610203401134,1.1885220292237688
1649.7265755251751,1.1805533827128636
1656.3921307102366,1.1725976018844606
1663.0576858952984,1.164654530353461
1669.7232410803601,1.1567240141728348
1676.388796265422,1.1488059017869787
1683.0543514504834,1.1409000439861408
1689.7199066355452,1.1330062938618668
1696.385461820607,1.1251245067634703
1703.0510170056687,1.11725454025546
1709.7165721907302,1.1093962540759394
1716.382127375792,1.1015495100959234
1723.0476825608537,1.0937141722795656
1729.7132377459152,1.0858901066452662
1736.378792930977,1.0780771812276362
1743.0443481160387,1.0702752660403014
1749.7099033011004,1.0642082868898215
1756.375458486162,1.0581732570145606
1763.0410136712237,1.052147081712415
1769.7065688562855,1.0461296590219082
1776.3721240413472,1.0401208884847168
1783.0376792264087,1.0341206711185162
1789.7032344114705,1.028128909390408
1796.3687895965322,1.0221455071909196
1803.034344781594,1.0161703698085511
1809.6998999666555,1.0102034039048677
1816.3654551517172,1.0042445174901196
1823.031010336779,0.9982936198993698
1829.6965655218405,0.9923506217691322
1836.3621207069023,0.9864154350144925
1843.027675891964,0.9804879728067066
1849.6932310770258,0.9745681495512705
1856.3587862620873,0.9686558808664391
1863.024341447149,0.96275108356219
1869.6898966322108,0.956853675619622
1876.3554518172725,0.950963576170776
1883.021007002334,0.9450807054788675
1889.6865621873958,0.9392049849189202
1896.3521173724575,0.9333363369587994
1903.017672557519,0.9274746851406221
1909.6832277425808,0.921619954062546
1916.3487829276426,0.9157720693609255
1923.0143381127043,0.9099309576928224
1929.6798932977658,0.9040965467188679
1936.3454484828276,0.8982687650864685
1943.0110036678893,0.8924475424133383
1949.676558852951,0.8866328092713656
1956.3421140380126,0.8808244971707918
1963.0076692230743,0.8750225385447026
1969.673224408136,0.8692268667338247
1976.3387795931978,0.8644262711134673
1983.0043347782594,0.8599738108195587
1989.669889963321,0.8555263993613867
1996.3354451483829,0.8510839843829696
2003.0010003334444,0.8466465142211119
2009.6665555185061,0.8422139378941995
2016.3321107035679,0.8377862050912107
2022.9976658886296,0.8333632661609361
2029.6632210736911,0.8289450721014066
2036.328776258753,0.8245315745495175
2042.9943314438146,0.8201227257708552
2049.6598866288764,0.8157184786497104
2056.3254418139377,0.8113187866792829
2062.990996999,0.8069236039520657
2069.656552184061,0.8025328851504191
2076.322107369123,0.7981465855373053
2082.9876625541847,0.7937646609472095
2089.6532177392464,0.7893870677772218
2096.318772924308,0.7850137629782837
2102.98432810937,0.7806447040466015
2109.6498832944317,0.7762798490152096
2116.315438479493,0.7719191564456968
2122.9809936645547,0.7675625854200763
2129.6465488496165,0.7632100955328075
2136.312104034678,0.7588616468829623
2142.97765921974,0.754517200066536
2149.6432144048017,0.7501767161688877
2156.3087695898635,0.7458401567573293
2162.9743247749248,0.7415074838738376
2169.6398799599865,0.7371786600279008
2176.3054351450482,0.7328536481894958
2182.97099033011,0.7285324117821821
2189.6365455151717,0.7242149146763275
2196.3021007002335,0.7199011211824461
2202.9676558852952,0.7155909960446596
2209.633211070357,0.7112845044342695
2216.2987662554183,0.7069816119434444
2222.96432144048,0.7026822845790169
2229.629876625542,0.6992274865723105
2236.2954318106035,0.6959444670713797
2242.9609869956653,0.6926643071509839
2249.626542180727,0.6893869800812322
2256.292097365789,0.6861124594501041
2262.95765255085,0.6828407191588357
2269.623207735912,0.6795717334173927
2276.2887629209736,0.6763054767400182
2282.9543181060353,0.6730419239408556
2289.619873291097,0.6697810501296477
2296.285428476159,0.6665228307075064
2302.9509836612206,0.663267241362757
2309.6165388462823,0.6600142580668499
2316.2820940313436,0.6567638570703436
2322.9476492164054,0.653516014898952
2329.613204401467,0.6502707083496625
2336.278759586529,0.6470279144869134
2342.9443147715906,0.6437876106388397
2349.6098699566523,0.6405497743935774
2356.275425141714,0.6373143835956335
2362.9409803267754,0.6340814163423107
2369.606535511837,0.6308508509801953
2376.272090696899,0.627622666101701
2382.9376458819606,0.624396840541669
2389.6032010670224,0.6211733533740251
2396.268756252084,0.6179521839084895
2402.934311437146,0.6147333116873419
2409.5998666222076,0.6115167164822382
2416.265421807269,0.6083023782910776
2422.9309769923307,0.6050902773349239
2429.5965321773924,0.6018803940549706
2436.262087362454,0.5986727091095613
2442.927642547516,0.5954672033712521
2449.5931977325777,0.5922638579239249
2456.2587529176394,0.5890626540599443
2462.9243081027007,0.5858635732773607
2469.5898632877625,0.5826665972771585
2476.255418472824,0.5794717079605451
2482.920973657886,0.5762788874262864
2489.5865288429477,0.5730881179680817
2496.2520840280094,0.5698993820719797
2502.917639213071,0.5667126624138362
2509.5831943981325,0.5642348490706857
2516.2487495831942,0.5618143583215816
2522.914304768256,0.5593954829150136
2529.5798599533177,0.5569782092160465
2536.2454151383795,0.5545625237357764
2542.9109703234412,0.5521484131294261
2549.576525508503,0.5497358641944743
2556.2420806935647,0.5473248638688082
2562.907635878626,0.5449153992289095
2569.573191063688,0.5425074574880634
2576.2387462487495,0.5401010259945993
2582.9043014338113,0.5376960922301556
2589.569856618873,0.5352926438079701
2596.2354118039348,0.5328906684712001
2602.9009669889965,0.5304901540912628
2609.566522174058,0.5280910886662046
2616.2320773591196,0.5256934603190931
2622.8976325441813,0.5232972572964342
2629.563187729243,0.5209024679666118
2636.228742914305,0.5185090808183511
2642.8942980993666,0.5161170844592056
2649.5598532844283,0.513726467614065
2656.22540846949,0.5113372191236876
2662.8909636545513,0.5089493279432515
2669.556518839613,0.5065627831409287
2676.222074024675,0.5041775738964804
2682.8876292097366,0.5017936894998737
2689.5531843947983,0.49941111934991506
2696.21873957986,0.49702985295290797
2702.884294764922,0.4946498799213275
2709.549849949983,0.4922711899725152
2716.215405135045,0.4898937729273927
2722.8809603201066,0.48751761870919313
2729.5465155051684,0.48514271734221326
2736.21207069023,0.4827690589505801
2742.877625875292,0.4803966337570384
2749.5431810603536,0.478025432081754
2756.208736245415,0.47565544434113455
2762.8742914304767,0.4732866610466661
2769.5398466155384,0.4709190728037694
2776.2054018006,0.4685526703106684
2782.870956985662,0.4661874443572775
2789.5365121707237,0.4638233858241042
2796.2020673557854,0.46146048568116566
2802.867622540847,0.45909873498692294
2809.5331777259084,0.4567381248872278
2816.19873291097,0.45475884280922213
2822.864288096032,0.45297437816382413
2829.5298432810937,0.4511908262110383
2836.1953984661554,0.44940817997815646
2842.860953651217,0.4476264325599044
2849.526508836279,0.44584557711764955
2856.1920640213402,0.444065606878622
2862.857619206402,0.4422865151351413
2869.5231743914637,0.44050829524386004
2876.1887295765255,0.43873094062501355
2882.854284761587,0.43695444476168055
2889.519839946649,0.43517880119905583
2896.1853951317107,0.4334040035437309
2902.8509503167725,0.4316300454629845
2909.5165055018338,0.4298569206840853
2916.1820606868955,0.42808462299359984
2922.8476158719573,0.42631314623671424
2929.513171057019,0.42454248431656166
2936.1787262420808,0.4227726311935609
2942.8442814271425,0.42100358088476314
2949.5098366122043,0.419235327463207
2956.1753917972655,0.41746786505728384
2962.8409469823273,0.41570118785010923
2969.506502167389,0.41393529007890534
2976.172057352451,0.4121701660343891
2982.8376125375125,0.410405810060171
2989.5031677225743,0.4086422165521595
2996.168722907636,0.4068793799579748
3002.834278092698,0.4051172947763703
3009.499833277759,0.40335595555666065
3016.165388462821,0.4015953568981588
3022.8309436478826,0.39983549344961905
3029.4964988329443,0.39807635990868834
3036.162054018006,0.3963179510213646
3042.827609203068,0.3945602615814613
3049.4931643881296,0.392803286430081
3056.158719573191,0.3910470204550927
3062.8242747582526,0.38929145859061864
3069.4898299433144,0.3875365958165271
3076.155385128376,0.3857824271579309
3082.820940313438,0.38402894768469276
3089.4864954984996,0.3822761525109378
3096.1520506835614,0.38052403679457136
3102.8176058686226,0.37877259573680305
3109.4831610536844,0.3770218245816778
3116.148716238746,0.3752717186156119
3122.814271423808,0.37352227316693487
3129.4798266088696,0.37177348360543894
3136.1453817939314,0.3700253453419316
3142.810936978993,0.36827785382779576
3149.476492164055,0.36653100455455456
3156.142047349116,0.36506088401484116
3162.807602534178,0.36374628605405346
3169.4731577192397,0.36243220129801756
3176.1387129043014,0.36111862619551394
3182.804268089363,0.3598055572263677
3189.469823274425,0.3584929909011203
3196.1353784594867,0.3571809237607044
3202.800933644548,0.3558693523761226
3209.4664888296097,0.3545582733481314
3216.1320440146715,0.35324768330692785
3222.797599199733,0.3519375789118409
3229.463154384795,0.3506279568510254
3236.1287095698567,0.3493188138411621
3242.7942647549185,0.34801014662715846
3249.45981993998,0.3467019519818559
3256.1253751250415,0.34539422670573816
3262.7909303101032,0.3440869676266452
3269.456485495165,0.3427801715994897
3276.1220406802267,0.3414738355059771
3282.7875958652885,0.3401679562543284
3289.4531510503502,0.3388625307790086
3296.118706235412,0.3375575560404551
3302.7842614204733,0.3362530290248122
3309.449816605535,0.33494894674366693
3316.115371790597,0.33364530623379035
3322.7809269756585,0.3323421045568789
3329.4464821607203,0.33103933879930036
3336.112037345782,0.32973700607184486
3342.777592530844,0.3284351035094753
3349.4431477159055,0.3271336282710819
3356.108702900967,0.32583257753924255
3362.7742580860286,0.32453194851998035
3369.4398132710903,0.32323173844253084
3376.105368456152,0.32193194455910606
3382.770923641214,0.320632564144664
3389.4364788262756,0.3193335944966816
3396.1020340113373,0.31803503293492924
3402.7675891963986,0.3167368768012467
3409.4331443814604,0.3154391234593252
3416.098699566522,0.3141417702944881
3422.764254751584,0.3128448147134768
3429.4298099366456,0.3115482541442385
3436.0953651217073,0.3102520860357158
3442.760920306769,0.3089563078576394
3449.4264754918304,0.30766091710032295
3456.092030676892,0.3063659112744601
3462.757585861954,0.3050712879109253
3469.4231410470156,0.303777044560574
3476.0886962320774,0.30248317879404796
3482.754251417139,0.3011896882015823
3489.419806602201,0.2998965703928125
3496.0853617872626,0.29860382299658655
3502.750916972324,0.2973114436607784
3509.4164721573857,0.2960194300521023
3516.0820273424474,0.2947277798559299
3522.747582527509,0.2934364907761111
3529.413137712571,0.2922826018375052
3536.0786928976327,0.29131513534604164
3542.7442480826944,0.2903479569185486
3549.4098032677557,0.2893810647469842
3556.0753584528175,0.2884144570376193
3562.740913637879,0.2874481320108989
3569.406468822941,0.2864820879013084
3576.0720240080027,0.28551632295723783
